#ZVView-data-copy:   4-Jan-2019 16:25:31
#=======================================
#
#name:   ENDF/B-VIII.0: Y-89(N,G)Y-90
#X.axis: Incident Energy
#Y.axis: Cross Section
#wdata:  2
#ldata:  10004
#data...
#            X            Y
#          MeV        barns
         1e-11       64.308
   1.10304e-11      61.2308
   1.21669e-11      58.3009
   1.34206e-11      55.5111
   1.48034e-11      52.8549
   1.63287e-11      50.3257
   1.80111e-11      47.9176
   1.98669e-11      45.6247
   2.19139e-11      43.4415
   2.41719e-11      41.3628
   2.66625e-11      39.3836
   2.94097e-11       37.499
     3.244e-11      35.7047
   3.57825e-11      33.9962
   3.94694e-11      32.3694
   4.35362e-11      30.8205
   4.80221e-11      29.3457
   5.29701e-11      27.9415
    5.8428e-11      26.6045
   6.44483e-11      25.3314
   7.10888e-11      24.1193
   7.84136e-11      22.9652
   8.64931e-11      21.8663
   9.54051e-11      20.8199
   1.05235e-10      19.8237
   1.16078e-10      18.8751
   1.28039e-10      17.9719
   1.41231e-10      17.1119
   1.55784e-10      16.2931
   1.71835e-10      15.5135
    1.8954e-10      14.7711
    2.0907e-10      14.0643
   2.30612e-10      13.3913
   2.54374e-10      12.7505
   2.80584e-10      12.1404
   3.09494e-10      11.5595
   3.41383e-10      11.0063
   3.76558e-10      10.4797
   4.15358e-10      9.97821
   4.58155e-10      9.50074
   5.05362e-10      9.04612
   5.57433e-10      8.61325
   6.14869e-10       8.2011
   6.78223e-10      7.80866
   7.48105e-10      7.43501
   8.25188e-10      7.07923
   9.10213e-10      6.74048
      1.004e-9      6.41794
    1.10745e-9      6.11083
    1.22155e-9      5.81841
    1.34742e-9      5.53999
    1.48625e-9      5.27489
    1.63939e-9      5.02248
    1.80831e-9      4.78214
    1.99463e-9      4.55331
    2.20016e-9      4.33542
    2.42685e-9      4.12796
    2.67691e-9      3.93042
    2.95273e-9      3.74234
    3.25697e-9      3.56326
    3.59256e-9      3.39274
    3.96272e-9      3.23039
    4.37103e-9       3.0758
    4.82141e-9      2.92861
    5.31819e-9      2.78847
    5.86616e-9      2.65503
    6.47059e-9      2.52798
     7.1373e-9      2.40701
    7.87271e-9      2.29184
    8.68389e-9       2.1822
    9.57865e-9      2.07782
    1.05656e-8      1.97845
    1.16543e-8      1.88385
    1.28551e-8      1.79379
    1.41796e-8      1.70804
    1.56406e-8      1.62639
    1.72522e-8       1.5486
    1.90298e-8      1.47449
    2.09906e-8      1.40389
    2.31534e-8      1.33666
    2.52419e-8      1.28017
       2.53e-8       1.2787
    2.79068e-8      1.21756
    3.07823e-8      1.15934
     3.3954e-8      1.10384
    3.74525e-8      1.05094
    4.13115e-8      1.00055
    4.55681e-8      0.95258
    5.02633e-8     0.906923
    5.54423e-8     0.863491
    6.11549e-8     0.822209
    6.74561e-8     0.782903
    7.44066e-8     0.745391
    8.20732e-8     0.709632
    9.05297e-8     0.675588
    9.98577e-8     0.643179
    1.10147e-7     0.612337
    1.21496e-7     0.583049
    1.34014e-7      0.55518
    1.47823e-7     0.528533
    1.63054e-7     0.503143
    1.79855e-7     0.478972
    1.98386e-7     0.455962
    2.18827e-7     0.434056
    2.41375e-7      0.41325
    2.68123e-7       0.3921
     2.9575e-7     0.373226
    3.26223e-7     0.355253
    3.59836e-7     0.338143
    3.96913e-7     0.321851
    4.37809e-7      0.30634
     4.8292e-7     0.291686
    5.32679e-7     0.277609
    5.87564e-7     0.264187
    6.48105e-7     0.251405
    7.14884e-7     0.239229
    7.88543e-7      0.22764
    8.69792e-7     0.216598
    9.52693e-7     0.206942
    1.04355e-6     0.197554
    1.14301e-6     0.188596
    1.25201e-6     0.180033
    1.38101e-6     0.171224
    1.52331e-6     0.162837
    1.68026e-6     0.154847
    1.85339e-6     0.147233
    2.03004e-6     0.140526
    2.23921e-6     0.133582
    2.45275e-6     0.127419
    2.68652e-6     0.121524
    2.94272e-6      0.11586
    3.24593e-6     0.110055
    3.58038e-6     0.104503
    3.94929e-6    0.0992199
    4.41767e-6    0.0934885
    4.87286e-6    0.0887104
    5.30017e-6    0.0847759
    5.76495e-6    0.0809901
    6.31441e-6    0.0770377
    6.91657e-6    0.0732764
     7.5758e-6    0.0696511
    8.18281e-6     0.066751
    8.83803e-6    0.0638838
    9.68086e-6    0.0606497
    1.05298e-5    0.0577791
    1.13729e-5      0.05524
    1.22842e-5    0.0527841
     1.3455e-5    0.0499775
    1.47382e-5     0.047302
    1.61429e-5    0.0447252
    1.75584e-5    0.0424416
    1.92329e-5     0.040057
    2.09195e-5     0.037938
    2.25945e-5    0.0360619
     2.4234e-5    0.0344089
    2.59924e-5    0.0328064
     2.8075e-5     0.031094
     3.0537e-5    0.0293003
    3.29822e-5    0.0277077
    3.56249e-5    0.0261781
    3.82098e-5    0.0248334
    4.15605e-5    0.0232753
    4.45761e-5    0.0220185
    4.78105e-5    0.0208068
    5.12797e-5    0.0196379
    5.46152e-5    0.0186193
    5.81706e-5    0.0176326
    6.15235e-5    0.0167822
    6.55254e-5     0.015854
    7.02799e-5     0.014863
    7.48551e-5    0.0140034
    7.97241e-5    0.0131762
    8.49141e-5    0.0123777
    9.04375e-5    0.0116145
    9.56501e-5    0.0109635
   0.000101877    0.0102551
   0.000107749   0.00964995
   0.000114758   0.00900198
   0.000121372   0.00844939
   0.000127475   0.00798388
   0.000133878   0.00753713
   0.000140609   0.00710783
   0.000146645   0.00675311
   0.000154011   0.00635642
   0.000160622   0.00602911
   0.000167516   0.00571398
   0.000175939   0.00536007
   0.000184777   0.00502523
   0.000194068   0.00470455
   0.000203816   0.00440029
   0.000214064   0.00410976
   0.000224816   0.00383602
    0.00023612   0.00357566
   0.000247981   0.00332939
   0.000258625   0.00313147
   0.000265974   0.00300135
   0.000279327   0.00278795
   0.000291316   0.00261415
   0.000303821   0.00244958
   0.000316862    0.0022939
   0.000330109   0.00215026
   0.000342804   0.00202451
   0.000355014   0.00191341
   0.000367678   0.00180753
   0.000380774   0.00170697
   0.000393586   0.00161633
   0.000407605   0.00152522
   0.000419188   0.00145536
   0.000431673   0.00138535
   0.000447048   0.00130599
   0.000462995   0.00123041
   0.000482455   0.00114685
   0.000498618   0.00108388
   0.000516895    0.0010184
   0.000536972   0.00095374
   0.000558628  0.000890518
   0.000579928  0.000834308
   0.000603017  0.000779645
   0.000630354  0.000721772
   0.000655567  0.000674286
    0.00068078  0.000631669
   0.000710974  0.000586445
   0.000736365  0.000552282
   0.000762593  0.000520459
   0.000787147   0.00049343
   0.000815184  0.000465595
   0.000837929  0.000444986
   0.000861739  0.000425217
   0.000892433  0.000402271
   0.000917792  0.000385094
   0.000943871  0.000369003
   0.000970692  0.000353963
    0.00100288  0.000337696
    0.00104106  0.000320789
    0.00107392  0.000308049
     0.0011094  0.000295877
    0.00114262  0.000286095
    0.00118062  0.000276375
    0.00121879  0.000268227
    0.00126068  0.000260883
    0.00130404  0.000255141
    0.00134575  0.000251178
    0.00139048  0.000248591
    0.00143453  0.000247776
    0.00143717  0.000247764
     0.0014876  0.000249089
    0.00153395  0.000252445
    0.00157073  0.000256644
    0.00161086  0.000262842
    0.00164511  0.000269728
    0.00168375  0.000279295
     0.0017113  0.000287448
    0.00173544  0.000295661
    0.00175993  0.000305066
    0.00178476  0.000315822
    0.00180994  0.000328127
    0.00183514  0.000342029
    0.00185975  0.000357322
    0.00188436  0.000374531
    0.00190897  0.000393918
    0.00193358  0.000415792
    0.00195818  0.000440524
    0.00198279  0.000468545
    0.00200125  0.000492143
     0.0020197  0.000517994
    0.00203816  0.000546817
    0.00205662  0.000578513
    0.00207507  0.000614053
    0.00209353  0.000653345
    0.00211076  0.000694494
    0.00212552  0.000733251
    0.00214028  0.000776167
    0.00215667  0.000828662
    0.00217225  0.000884559
    0.00218458  0.000933169
    0.00219935   0.00099786
    0.00220958     0.001047
    0.00222208   0.00111194
    0.00223286   0.00117388
    0.00224364   0.00124126
    0.00225653   0.00133041
    0.00226646   0.00140626
    0.00227639   0.00148888
    0.00228301   0.00154848
    0.00229364   0.00165222
    0.00230191   0.00174052
    0.00231018   0.00183643
    0.00231845   0.00194079
    0.00232672   0.00205458
     0.0023344   0.00216973
    0.00234453   0.00233762
    0.00235192   0.00247261
    0.00236092   0.00265567
    0.00236721   0.00279522
    0.00237378   0.00295211
    0.00238199   0.00316882
    0.00238924   0.00338141
    0.00239621   0.00360713
    0.00240352   0.00386956
    0.00240874   0.00407427
    0.00241432   0.00431219
    0.00241953   0.00455457
    0.00242682   0.00492935
    0.00243196   0.00522122
    0.00243709   0.00554035
    0.00244176   0.00585927
    0.00244644   0.00620446
    0.00245111   0.00658142
    0.00245576   0.00699221
    0.00246041   0.00744268
    0.00246497   0.00792703
    0.00246947   0.00845454
    0.00247397    0.0090359
    0.00247803    0.0096132
    0.00248209    0.0102494
    0.00248616    0.0109511
    0.00249022    0.0117302
    0.00249428    0.0125923
    0.00249809    0.0134917
    0.00250178    0.0144501
    0.00250547    0.0155225
    0.00250916    0.0167193
    0.00251286    0.0180604
    0.00251532    0.0190491
    0.00251778    0.0201213
    0.00252024     0.021283
     0.0025227    0.0225435
    0.00252516    0.0239254
    0.00252762    0.0254394
    0.00253008    0.0271022
    0.00253254     0.028934
      0.002535    0.0309587
    0.00253722     0.032969
    0.00253943    0.0351812
    0.00254165    0.0376176
    0.00254386    0.0403232
    0.00254608    0.0433368
    0.00254774    0.0458257
     0.0025494    0.0485368
    0.00255106    0.0514976
    0.00255272    0.0547398
    0.00255438    0.0583009
    0.00255604    0.0622244
     0.0025577     0.066562
    0.00255937    0.0713746
    0.00256103    0.0767356
    0.00256269    0.0827328
    0.00256379    0.0871362
     0.0025649    0.0919066
    0.00256601    0.0970868
    0.00256712     0.102726
    0.00256822     0.108882
    0.00256933     0.115621
    0.00257044     0.123022
    0.00257173     0.132616
    0.00257259     0.139669
    0.00257345     0.147317
    0.00257431     0.155633
    0.00257518     0.164698
    0.00257604     0.174605
     0.0025769     0.185462
    0.00257764      0.19563
    0.00257856      0.20963
    0.00257948     0.225294
     0.0025801       0.2368
    0.00258071     0.249271
    0.00258133     0.262825
    0.00258194     0.277603
    0.00258253     0.292924
    0.00258308     0.308745
    0.00258364     0.326007
    0.00258419     0.344908
    0.00258474     0.365687
     0.0025853     0.388629
    0.00258585     0.414081
     0.0025864     0.442467
    0.00258686     0.468513
     0.0025874     0.502948
    0.00258776     0.528416
    0.00258813     0.556219
    0.00258849     0.586702
    0.00258885     0.620278
    0.00258921     0.657457
    0.00258957      0.69886
    0.00258984     0.732492
     0.0025901     0.769213
    0.00259037     0.809488
    0.00259064     0.853872
     0.0025909      0.90306
    0.00259117     0.957911
    0.00259143      1.01952
    0.00259163      1.07101
     0.0025918      1.11758
      0.002592      1.17868
    0.00259219      1.24685
    0.00259239      1.32352
    0.00259254      1.38768
    0.00259268      1.45862
    0.00259283      1.53754
    0.00259298      1.62592
    0.00259313       1.7256
    0.00259328      1.83881
     0.0025934      1.94552
    0.00259352       2.0655
    0.00259364      2.20106
    0.00259374      2.31455
    0.00259383      2.43961
    0.00259392      2.57769
    0.00259401      2.73038
    0.00259411      2.89953
     0.0025942      3.08704
    0.00259426      3.22331
    0.00259435      3.44636
    0.00259444      3.69389
    0.00259454      3.96856
    0.00259463      4.27309
    0.00259472      4.61043
    0.00259481      4.98351
    0.00259491      5.39543
      0.002595       5.8492
    0.00259509      6.34798
    0.00259518       6.8945
    0.00259527      7.49156
    0.00259537      8.14153
    0.00259546      8.84656
    0.00259554      9.51376
    0.00259564      10.4048
    0.00259574      11.3652
    0.00259584      12.3941
    0.00259596      13.6418
    0.00259609      15.1327
    0.00259625      17.1535
    0.00259644      19.7522
    0.00259689       25.776
    0.00259708      28.2828
    0.00259723       29.988
    0.00259738      31.4864
    0.00259753      32.7311
    0.00259763      33.3998
    0.00259772      33.9279
    0.00259783       34.337
    0.00259796       34.581
      0.002598      34.6004
    0.00259813      34.4966
    0.00259824       34.181
    0.00259836      33.6621
    0.00259845      33.0702
    0.00259857       32.178
    0.00259869       31.115
    0.00259881      29.9039
    0.00259894      28.4541
    0.00259914      25.8936
    0.00259962      19.6757
     0.0025998      17.4205
    0.00259992      16.0015
    0.00260002      14.8572
    0.00260015      13.5303
    0.00260028      12.3113
    0.00260036      11.5608
    0.00260045      10.8603
    0.00260053      10.2097
    0.00260062      9.60842
    0.00260072      8.91345
    0.00260082      8.34601
    0.00260092      7.83759
    0.00260102      7.38487
    0.00260112      6.98464
    0.00260121      6.63331
    0.00260131      6.32739
    0.00260141      6.06336
    0.00260151      5.83791
    0.00260161      5.64777
     0.0026017      5.48997
     0.0026018      5.36051
     0.0026019      5.26379
    0.00260202       5.1717
    0.00260214      5.11321
    0.00260226      5.08511
    0.00260232       5.0816
    0.00260244      5.09426
    0.00260256      5.13162
    0.00260268      5.19228
     0.0026028      5.27524
    0.00260292      5.37996
     0.0026031      5.57754
    0.00260328      5.82471
     0.0026034       6.0184
    0.00260353      6.23661
    0.00260365      6.48105
    0.00260377      6.75373
    0.00260392      7.14996
    0.00260404      7.48429
    0.00260415      7.85393
    0.00260427      8.26257
    0.00260439      8.71427
     0.0026045      9.21385
    0.00260462      9.76638
    0.00260474      10.3778
    0.00260485      11.0544
    0.00260497      11.8034
    0.00260506      12.4349
    0.00260516       13.214
    0.00260526      14.0648
    0.00260536      14.9933
    0.00260547      16.0058
    0.00260557      17.1085
    0.00260567      18.3077
    0.00260577      19.6097
    0.00260586      20.9161
      0.002606      22.8881
    0.00260613      25.0593
    0.00260626      27.4379
    0.00260639      30.0292
    0.00260652      32.8345
    0.00260665      35.9671
    0.00260679      39.3167
    0.00260693      42.8671
    0.00260712      48.2364
    0.00260741       56.731
    0.00260776      66.9891
    0.00260793      71.8321
    0.00260811      76.2857
    0.00260828      80.2006
     0.0026084      82.4415
    0.00260852      84.4572
    0.00260866      86.1326
    0.00260879       87.291
    0.00260892      87.9061
      0.002609      88.0079
    0.00260914      87.6918
    0.00260928      86.7691
    0.00260943      85.0716
    0.00260955      83.2502
    0.00260967      81.0456
    0.00260985       77.109
    0.00261003      72.7464
     0.0026102       67.963
    0.00261055      57.7309
    0.00261085      48.8974
    0.00261105      43.2084
    0.00261119      39.6232
    0.00261133      36.2354
    0.00261144      33.5017
    0.00261156      30.9331
    0.00261167      28.5328
    0.00261179      26.3012
    0.00261191      24.2356
    0.00261199      22.7929
    0.00261209      21.2933
    0.00261219      19.8988
    0.00261229      18.6045
    0.00261238      17.4053
    0.00261248      16.2959
    0.00261258       15.271
    0.00261267      14.3249
    0.00261278      13.3557
     0.0026129      12.3833
    0.00261302      11.5037
    0.00261314       10.708
    0.00261326      9.98767
    0.00261338      9.33505
     0.0026135      8.74307
    0.00261362      8.20529
    0.00261375      7.67107
    0.00261389      7.14799
    0.00261403      6.67806
    0.00261417      6.25458
    0.00261432      5.87174
    0.00261446      5.52455
     0.0026146      5.20871
    0.00261474      4.92052
    0.00261491      4.61144
    0.00261501      4.44695
     0.0026152      4.14454
     0.0026154      3.87334
    0.00261559      3.62907
    0.00261578      3.40813
    0.00261598      3.20757
    0.00261617      3.02487
    0.00261637       2.8579
    0.00261658      2.68662
     0.0026168      2.53078
    0.00261702      2.38853
    0.00261724      2.25831
    0.00261746      2.13875
    0.00261767      2.02871
    0.00261789      1.92717
    0.00261811      1.83327
    0.00261838      1.72776
    0.00261864      1.63132
    0.00261891      1.54293
    0.00261918      1.46169
    0.00261944      1.38684
    0.00261984      1.28511
    0.00262024      1.19439
    0.00262059       1.1225
    0.00262094      1.05701
     0.0026213      0.99719
    0.00262165     0.942385
      0.002622     0.892045
    0.00262235     0.845697
     0.0026227     0.802925
    0.00262305     0.763368
    0.00262348     0.719459
     0.0026239     0.679289
    0.00262432     0.642441
    0.00262475     0.608554
    0.00262517     0.577313
    0.00262581     0.534828
    0.00262645     0.496916
    0.00262699     0.467572
    0.00262754      0.44078
    0.00262808     0.416252
    0.00262863     0.393737
    0.00262917     0.373021
    0.00262972     0.353914
    0.00263053     0.327921
    0.00263114     0.310488
    0.00263181     0.292886
    0.00263247     0.276754
    0.00263314     0.261934
     0.0026338      0.24829
    0.00263447     0.235701
    0.00263547     0.218566
    0.00263614     0.208168
    0.00263698     0.195973
    0.00263783      0.18482
    0.00263868     0.174596
    0.00263953     0.165203
    0.00264038     0.156553
    0.00264122     0.148571
     0.0026425     0.137703
    0.00264347      0.13021
    0.00264456     0.122493
    0.00264565     0.115448
    0.00264674     0.108997
    0.00264783     0.103076
    0.00264892    0.0976274
    0.00265001    0.0926027
    0.00265164    0.0857676
    0.00265285    0.0811839
    0.00265407    0.0769605
    0.00265528    0.0730603
    0.00265709    0.0677466
    0.00265891    0.0629962
    0.00266073    0.0587384
    0.00266255    0.0549084
    0.00266436    0.0514335
    0.00266618    0.0482769
      0.002668    0.0454039
    0.00266982    0.0427816
    0.00267163    0.0403814
    0.00267345    0.0381791
    0.00267587    0.0355139
     0.0026783    0.0331202
    0.00268072    0.0309622
    0.00268314    0.0290098
    0.00268556    0.0272377
    0.00268799    0.0256243
    0.00269041    0.0241511
    0.00269283    0.0228024
    0.00269526    0.0215644
    0.00269768    0.0204254
     0.0027001     0.019375
    0.00270374    0.0179463
    0.00270737    0.0166713
    0.00271113    0.0154927
    0.00271379    0.0147345
    0.00271779    0.0136948
    0.00272045    0.0130605
     0.0027236    0.0123679
    0.00272675    0.0117297
     0.0027299    0.0111418
    0.00273451    0.0103585
    0.00273887   0.00969041
    0.00274323    0.0090856
    0.00274759   0.00853634
    0.00275195    0.0080361
    0.00275631   0.00757931
    0.00276164   0.00707263
    0.00276697   0.00661602
    0.00277206   0.00622112
    0.00277715     0.005861
    0.00278224   0.00553201
    0.00278733   0.00523048
    0.00279314   0.00491597
    0.00279896   0.00462923
    0.00280477    0.0043677
    0.00281059   0.00412805
    0.00281664   0.00389955
     0.0028227   0.00368997
    0.00282924   0.00348272
    0.00283578   0.00329273
    0.00284233   0.00311865
    0.00285323   0.00285902
    0.00286147   0.00268421
    0.00286971   0.00252565
    0.00287794   0.00238137
    0.00288618    0.0022497
    0.00289442   0.00212923
    0.00290266   0.00201874
     0.0029109   0.00191715
    0.00291913    0.0018236
    0.00292882   0.00172268
